train_time,train_losses,train_accuracies,train_f1_scores,val_losses,val_accuracies,val_f1_scores
30.656891584396362,0.5905402373183858,0.6728084415584416,0.804405842107817,0.8540586154250538,0.6099391193543819,0.757716999384399
29.603773832321167,0.47059753726829184,0.734577922077922,0.8299708818635607,0.5970562793550448,0.7506725187597338,0.8284127448114587
29.6367928981781,0.20641108946269981,0.926948051948052,0.9453020542117418,0.35848386031133017,0.8500637123035537,0.8884911024534063
29.802826642990112,0.12399824730713259,0.95625,0.9673471860422851,0.2711960663892565,0.9012459294917174,0.92362441828634
29.712236881256104,0.0848086868449078,0.9706168831168831,0.9780898196344269,0.1792662247733057,0.9382698570012743,0.9490296937105448
29.789772987365723,0.062382426999460956,0.9806006493506494,0.9855388152719792,0.2631671358062148,0.9125725612346028,0.9322731011790513
29.72668480873108,0.05263481364228654,0.9827922077922078,0.9871980676328502,0.18658157398426964,0.9367832365850205,0.9491602618844293
29.723121881484985,0.040800432845883604,0.9866883116883117,0.9901037895244992,0.6404030660833169,0.8128274104488178,0.8665455279628508
29.72336769104004,0.034287492030560245,0.9899350649350649,0.992519305019305,0.2187627079144407,0.9365708622398414,0.9500501728174824
29.71389627456665,0.027025126136065305,0.9920454545454546,0.9940849830999517,0.8744592422880738,0.7887583179951861,0.8520281662203709
29.750102996826172,0.02802914916885436,0.9914772727272727,0.9936659226639319,0.7410170727270357,0.8139600736231063,0.8673798950343157
29.696452617645264,0.022593168260918194,0.9930194805194805,0.9948124019785257,1.115380099692226,0.7542828826277785,0.832245904016239
29.74055767059326,0.020745542676334706,0.9931818181818182,0.9949324324324325,0.9045889730232334,0.7942800509698429,0.8555091487669053
29.706414937973022,0.01739718446227595,0.9948051948051948,0.996140393197443,1.0061034827547914,0.7846524139883903,0.8497926130752518
29.746517658233643,0.017847037449491954,0.9935064935064936,0.9951737451737451,0.5086652085074956,0.8752654679314739,0.9069890202702703
29.711369514465332,0.019231677283332593,0.9936688311688312,0.9952926976463489,0.48610796056881683,0.8831941101514937,0.9123086734693877
29.760969400405884,0.012085715728825526,0.9959415584415584,0.9969832267406782,0.27783327395577356,0.9312615036103639,0.946130374479889
29.710182666778564,0.012069037339503442,0.9960227272727272,0.9970444538271307,0.25036839015251955,0.9400396432111001,0.9526365822289325
29.80897045135498,0.014060702679919566,0.994724025974026,0.9960807958999096,0.397373537200069,0.9038652130822596,0.9265787197231834
29.79639506340027,0.011178893866098724,0.9959415584415584,0.9969835907335908,0.5852696749031948,0.8640804190853745,0.8994132439228835
29.767106294631958,0.006955676849866467,0.9978084415584415,0.9983710407239819,0.6357751997415296,0.8558686110717826,0.8939914610017703
29.775659799575806,0.006872364243000364,0.9978896103896104,0.998431845597105,0.2182550555674618,0.9487469913634433,0.9590682948891904
29.726085424423218,0.008930712619206003,0.9970779220779221,0.997828447339848,0.2234353587900759,0.9483930341214781,0.9588855676498788
29.748740196228027,0.006907999527751387,0.9978896103896104,0.9984314671814671,0.3687898070128462,0.9171032139317571,0.9359374145193938
29.66304612159729,0.005402233654764698,0.9983766233766234,0.9987929993964997,0.3624220513616877,0.9185898343480108,0.9368894742618813
29.680392503738403,0.006215539363251815,0.9986201298701298,0.9989746064298208,0.25241332709232484,0.9410307234886026,0.9534610872115761
29.65715742111206,0.002450752503349364,0.9995941558441559,0.999698377269711,0.22364384154016945,0.9510831091604134,0.9609758852431242
29.754437923431396,0.005801294867313874,0.9982954545454545,0.9987333373544846,0.5365232685001406,0.8771768370380858,0.9081962008571882
29.630491256713867,0.010739496581663843,0.9963474025974026,0.997285722902467,0.33793685913857124,0.9207843692481948,0.9387755102040817
29.647444486618042,0.006432704974274686,0.997564935064935,0.9981901544401545,0.27532542659634407,0.937845108310916,0.9512655417406749
29.59459924697876,0.005552519547200064,0.9983766233766234,0.9987935818554711,0.2399272778700389,0.9447826702534334,0.9563611950318899
29.591236114501953,0.001678875054570305,0.9998376623376624,0.9998793581855471,0.24925949925438454,0.9451366274953985,0.9566190876014553
29.587562799453735,0.0010098332799434384,1.0,1.0,0.2317168782994066,0.9464108735664731,0.957617154694586
29.563215255737305,0.009041428706645942,0.9973214285714286,0.9980095301284758,0.6815337918349015,0.8460285997451508,0.8876607613243117
29.549009799957275,0.008952450232169071,0.9965909090909091,0.997467133035822,0.2520261306781322,0.9393317287271697,0.9522429646140986
29.615519762039185,0.003973691734049148,0.9989448051948052,0.9992156862745099,0.24807966748706584,0.9442871301146821,0.9560359756438188
29.560282707214355,0.006782818483118824,0.9984577922077922,0.9988539718921527,0.26465986981969253,0.9387653971400255,0.9516300397025108
29.6958110332489,0.006164828136705229,0.9979707792207793,0.9984918863485552,0.6119514083430778,0.8616735098400113,0.8979101358411703
29.564441442489624,0.004765961789962603,0.9987012987012988,0.999034749034749,0.18744628074726863,0.9574543395157865,0.965776436421616
29.67740035057068,0.0034414160092755873,0.9988636363636364,0.9991554054054054,0.3099704878562766,0.9325357496814385,0.9472927382335048
29.63768434524536,0.0012975626832721664,0.9997564935064935,0.9998190263618266,0.2927602874740644,0.9322525838878664,0.9470129007253197
29.679003953933716,0.006178901036556843,0.9978896103896104,0.9984312779051526,0.663054832927377,0.8468780971258671,0.8882112770685824
29.632482051849365,0.00482835332243537,0.9986201298701298,0.9989743589743589,0.2344610432897522,0.9473311623955826,0.9582022471910112
29.61209201812744,0.0010390312174280694,1.0,1.0,0.24385167389892265,0.9422341781112842,0.9543624161073826
29.651460647583008,0.006828076231726914,0.9974025974025974,0.9980701965987215,0.3365640168319766,0.9200056633158714,0.9381499726327313
29.608114004135132,0.0066824791637266675,0.9976461038961039,0.9982497434968918,0.2716281227878747,0.9368540280334136,0.9504444444444444
29.64178967475891,0.004359919098738805,0.9988636363636364,0.9991556091676719,0.4353740969067018,0.8960781537590259,0.9211261551687083
29.604278802871704,0.0017128708629865902,0.9997564935064935,0.9998190263618266,0.1914568987494396,0.9587993770352542,0.9669993195735994
29.682860851287842,0.0010840407836511005,1.0,1.0,0.28036464381325893,0.9352966161687668,0.9493965230871443
29.662744760513306,0.0009144955838375797,1.0,1.0,0.26937630025527576,0.9377035254141299,0.9511219728949123
29.61719298362732,0.000740406002211324,1.0,1.0,0.2399760352682896,0.9425173439048563,0.9547279214986619
29.67023777961731,0.012660834020477654,0.9961038961038962,0.9971049457177322,0.25037828302203824,0.9408183491434234,0.9533846325415412
29.619105339050293,0.0010728831864508283,0.9998376623376624,0.9998793581855471,0.2826704686375957,0.9354381990655529,0.9494120257377413
29.679412841796875,0.0014131364052729339,0.9999188311688312,0.9999396754539422,0.3571595833160097,0.9207843692481948,0.938728576904123
29.670523166656494,0.001580498079023197,0.999512987012987,0.9996380745566413,0.22333865056817678,0.9488177828118364,0.9593386198751477
29.68183135986328,0.005163991261266441,0.9988636363636364,0.9991557110119407,0.2889583471065363,0.9309783378167917,0.9461712582123337
29.668471813201904,0.003589037888784108,0.9991883116883117,0.9993968636911942,0.44019573102536613,0.8966444853461701,0.9215222532788647
29.655595064163208,0.00378121716008985,0.999025974025974,0.9992761491132827,0.8307506286315789,0.8267025343338524,0.8754578754578755
29.712308168411255,0.007106914140679798,0.9978896103896104,0.9984312779051526,0.26209495902115193,0.9415262636273538,0.953901105034044
29.689775705337524,0.006096775016788803,0.9982142857142857,0.9986731001206273,0.26299299597464937,0.9386238142432394,0.9516964733411332
29.70004963874817,0.0013940206088260642,0.9998376623376624,0.9998793581855471,0.24650265164132076,0.9431544669403936,0.9551371585004749
29.70269513130188,0.0010536311152534764,0.9996753246753247,0.9997587163710943,0.315959390627491,0.9280050969842844,0.9439885443630556
29.704097986221313,0.0006522198320595493,1.0,1.0,0.23889634469503615,0.9418094294209259,0.9541345831938399
29.70348620414734,0.0007641647258140722,1.0,1.0,0.2199853326814782,0.9456321676341498,0.9569796101277168
29.71344017982483,0.0006069329935492639,1.0,1.0,0.21708571740768653,0.9464108735664731,0.9576313874741142
29.701833248138428,0.011539991232343533,0.9964285714285714,0.9973455598455598,0.22824482220671208,0.9432960498371796,0.9552288860320832
29.696779251098633,0.001033366278838971,1.0,1.0,0.24928642131135142,0.9406059747982444,0.9531990851787806
29.69577193260193,0.001142613923380472,1.0,1.0,0.2322266071749921,0.9461984992212941,0.9574181981174361
29.703217029571533,0.0005590653617892039,1.0,1.0,0.2210356820248896,0.9471187880504035,0.958139534883721
29.707773685455322,0.0007051488277165963,1.0,1.0,0.24452353949805805,0.9407475576950305,0.9534042197851138
29.707829236984253,0.0007518169637667409,1.0,1.0,0.17428731016188648,0.9569587993770352,0.9655015887426237
29.692063093185425,0.01920331229632282,0.9939935064935065,0.9955357142857143,0.20329593784888,0.9464108735664731,0.9574695207595932
29.682682991027832,0.0022694284955868133,0.9998376623376624,0.9998793581855471,0.23349515949996194,0.9457737505309358,0.9571732080957174
29.692111492156982,0.001359193995893576,0.9998376623376624,0.9998793581855471,0.19432845684062722,0.9539855585445278,0.9632602306127063
29.688053846359253,0.0009731037731304335,0.9998376623376624,0.9998793581855471,0.24496510067030317,0.9415970550757469,0.9539851637012661
29.70519733428955,0.0006504570092407189,1.0,1.0,0.2271365760869691,0.9443579215630752,0.9560599284436494
29.699800729751587,0.0006321124431156317,1.0,1.0,0.20566040530825971,0.9492425315021945,0.9597846205620058
29.708038091659546,0.0006453898694523453,1.0,1.0,0.23698893387336284,0.941880220869319,0.9542490944552801
