train_time,train_losses,train_accuracies,train_f1_scores,val_losses,val_accuracies,val_f1_scores,,
10.3028276,0.692029323,0.604990127,0.707623628,0.672198971,0.627487042,0.771111568,,10.4670396
10.454844,0.683613228,0.644982947,0.783889508,0.679612378,0.627487042,0.771111568,,
10.45195293,0.675534738,0.637336205,0.777017482,0.672040085,0.626149473,0.769721936,,
10.46415544,0.666662966,0.642039131,0.780861959,0.66797332,0.627487042,0.771111568,,
10.44437551,0.661456853,0.642254532,0.779423158,0.673516214,0.627319846,0.770985308,,
10.54131532,0.654502852,0.648285766,0.777628981,0.674081008,0.644206654,0.771477663,,
10.5553906,0.644815756,0.664512655,0.78125512,0.689433118,0.642701889,0.773550917,,
10.45042181,0.628266777,0.675713516,0.782970135,0.854997416,0.62414312,0.768342951,,
10.44332838,0.589303681,0.713336923,0.800629198,0.85542961,0.646045812,0.774138483,,
10.55548978,0.550883436,0.746077903,0.817823567,0.461996625,0.819929778,0.862469672,,
10.5406642,0.509381122,0.794830372,0.849164665,0.468481322,0.831299114,0.871938063,,
10.43083024,0.486094215,0.809513552,0.859577621,0.485136499,0.822604916,0.85054233,,
10.39843988,0.481640622,0.80725184,0.857218839,0.554267625,0.783481023,0.80201804,,
10.44645214,0.472463574,0.813283073,0.859603185,0.757750889,0.697876609,0.80479637,,
10.40065145,0.462998373,0.83281278,0.87431517,0.451741517,0.83965892,0.878807026,,
10.52947855,0.447777408,0.841177526,0.882290336,0.473194073,0.817923424,0.854197349,,
10.46064901,0.460076381,0.818775803,0.868521123,0.431638638,0.859388062,0.888001065,,
10.54814577,0.458510209,0.827104649,0.873933302,0.393095235,0.882795519,0.901475755,,
10.56232953,0.43621986,0.847172859,0.886416393,0.416025937,0.875104498,0.904973922,,
10.45560718,0.432524707,0.848752468,0.888097957,0.415016582,0.863567965,0.897280967,,
10.4111228,0.427121516,0.855322204,0.892303581,0.552947919,0.812405952,0.8643289,,
10.51422644,0.435362756,0.839418417,0.882810658,0.4568895,0.847015549,0.873566395,,
10.41809011,0.426207981,0.850619278,0.890537448,0.506172717,0.776124394,0.844247993,,
10.68845272,0.437751176,0.837946509,0.882190208,0.356273701,0.910382879,0.928780229,,
10.43435335,0.41438746,0.865158858,0.898051137,0.377126118,0.892994483,0.915029209,,
10.47076321,0.406446221,0.873415904,0.903740104,0.517134249,0.863066377,0.891075941,,
10.40495324,0.398078716,0.875821217,0.905762158,0.404164881,0.882628323,0.897935446,,
10.40377593,0.398667651,0.877795728,0.907600434,0.352703134,0.912556429,0.930294549,,
10.4270525,0.393181062,0.879339436,0.909120407,0.3680634,0.904363819,0.919527293,,
10.45452523,0.390278339,0.879195836,0.909213544,0.556457281,0.802206989,0.862489829,,
10.50459576,0.390165983,0.879698438,0.910061998,0.420117915,0.854706571,0.89333497,,
10.39766097,0.383888449,0.885155268,0.914229026,0.45323059,0.857214513,0.895650049,,
10.46794939,0.393060022,0.872985101,0.905562673,0.472138067,0.823775288,0.875029642,,
10.46316767,0.381923818,0.88727338,0.914697093,0.388362408,0.884300284,0.913629556,,
10.39405465,0.380665238,0.887775983,0.915412923,0.35059012,0.911720448,0.928571429,,
10.50975347,0.373376135,0.895386825,0.92072474,0.34441787,0.913726802,0.929062414,,
10.4618783,0.374026875,0.893771316,0.919990266,0.332239489,0.923089784,0.938943456,,
10.4794538,0.373041257,0.890145396,0.916684818,0.455259323,0.833138271,0.880593443,,
10.39756346,0.370144446,0.895817627,0.921926285,0.397463997,0.879117204,0.910442215,,
10.42063165,0.37082544,0.894202118,0.921112509,0.401705792,0.872094967,0.905660377,,
10.46426606,0.377599107,0.887704182,0.916657785,0.359630982,0.904865407,0.926967013,,
10.4065876,0.372915598,0.893017412,0.92012437,0.442010721,0.837819763,0.88344148,,
10.45522451,0.373618458,0.893412314,0.920532106,0.53436478,0.78231065,0.851301964,,
10.52524304,0.376711896,0.88906839,0.916872915,0.335110327,0.921417823,0.937115333,,
10.4662528,0.364862925,0.905008078,0.928148591,0.346041689,0.914562782,0.932930831,,
10.46435261,0.366216176,0.898438341,0.92384311,0.430646757,0.860558435,0.898761835,,
10.46283078,0.366617656,0.900484653,0.925161987,0.4063737,0.868751045,0.902882593,,
10.52538514,0.367980031,0.89635613,0.922151813,0.552814682,0.784985788,0.852860412,,
10.52371573,0.36880726,0.894776521,0.920212332,0.346423397,0.911887644,0.931245923,,
10.52383304,0.361358643,0.902602764,0.926186913,0.336905887,0.923591373,0.938368173,,
10.55668902,0.361729977,0.902423263,0.925907753,0.373291999,0.883965892,0.911772184,,
10.45858479,0.361363121,0.90005385,0.924232528,0.384897451,0.877445243,0.909090909,,
10.46429181,0.360442455,0.901382158,0.925082499,0.333737701,0.924427353,0.940243258,,
10.55054736,0.356240351,0.905726081,0.928329694,0.383722464,0.884133088,0.913493946,,
10.52060843,0.364385094,0.892407108,0.917221378,0.379797379,0.888647383,0.916268544,,
10.47444487,0.358536082,0.904792676,0.926699834,0.328433235,0.926600903,0.942030899,,
10.42880177,0.35950749,0.900771854,0.924501502,0.430896988,0.846012373,0.888700906,,
10.71084499,0.357570853,0.899587148,0.923668914,0.348208716,0.909212506,0.929195462,,
10.51147151,0.354577377,0.904182373,0.926830606,0.380405565,0.889984952,0.917274327,,
10.48262644,0.352145116,0.906623586,0.929426129,0.43420128,0.852700217,0.893302652,,
10.42051959,0.352498278,0.911541913,0.933261105,0.365449637,0.897675974,0.922472764,,
10.40674734,0.352528817,0.908239095,0.930690385,0.363182743,0.904363819,0.92685422,,
10.52710986,0.348626216,0.912583019,0.933696392,0.448799004,0.830797525,0.879063098,,
10.53128386,0.356274824,0.899802549,0.923928153,0.364894797,0.896672797,0.921871049,,
10.46896338,0.34953231,0.907413391,0.928947296,0.342853715,0.913058017,0.932291667,,
10.46121693,0.347469785,0.911111111,0.932662497,0.35667933,0.908042133,0.928958925,,
10.39390016,0.346908141,0.912044516,0.933438383,0.37894241,0.884133088,0.913493946,,
10.40144372,0.348445058,0.910105906,0.931651927,0.349131445,0.905868584,0.927940612,,
10.40221643,0.345190823,0.913624125,0.934548422,0.371992211,0.897174386,0.922102597,,
10.44123006,0.344236059,0.912906121,0.933856808,0.391408632,0.874937301,0.906988311,,
10.40493369,0.340868677,0.915203734,0.935390339,0.337766796,0.917405116,0.935877466,,
10.4665525,0.34031428,0.917106444,0.937113599,0.384120633,0.880120381,0.910765401,,
10.52284145,0.339150782,0.916208939,0.936634631,0.341149459,0.920916235,0.93821032,,
10.45418406,0.340353291,0.916244839,0.936560163,0.346076399,0.913392409,0.933419023,,
10.40015936,0.343153334,0.915419135,0.936106742,0.369241556,0.892994483,0.918761107,,
10.39813876,0.339016046,0.920229761,0.939622847,0.341687143,0.914395586,0.933609959,,
10.45537305,0.33856602,0.919368157,0.939030349,0.328840733,0.928272864,0.943261473,,
10.55144906,0.33597404,0.921558069,0.940674975,0.325374742,0.927771276,0.942245989,,
10.45011377,0.340459074,0.919080955,0.939097541,0.334172686,0.91941147,0.937304891,,
10.45896053,0.33438362,0.92367618,0.942300385,0.356184542,0.907206153,0.929290355,,
10.40530086,0.337776097,0.92008616,0.939736856,0.375708948,0.893161679,0.919389429,,
10.46827674,0.33735321,0.918291151,0.938556233,0.36845245,0.89266009,0.919021191,,
10.51539636,0.333649848,0.922240172,0.94126898,0.350223531,0.906537368,0.92786166,,
10.46952748,0.334672747,0.91994256,0.939635104,0.335746109,0.922588196,0.939737082,,
10.46660471,0.333640592,0.923424879,0.942196688,0.342596064,0.921083431,0.939222251,,
10.45855904,0.330453028,0.923783881,0.942358339,0.319722871,0.932619963,0.94678463,,
10.42761612,0.333120459,0.924645486,0.943053257,0.375492324,0.888312991,0.916122551,,
10.44507003,0.330670344,0.925255789,0.943482274,0.339212378,0.918241097,0.936336415,,
10.53034496,0.332405241,0.92356848,0.942373799,0.33457456,0.920749039,0.938168536,,
10.47573018,0.331379824,0.924896787,0.943223145,0.329391648,0.930112021,0.945273632,,
10.464926,0.32961406,0.925614791,0.943787303,0.323826104,0.932118375,0.946775039,,
10.40209532,0.328682359,0.926260994,0.944375237,0.330177645,0.922421,0.939393939,,
10.4626236,0.329322066,0.926153294,0.944352766,0.34631752,0.915231567,0.934723832,,
10.45812798,0.327319688,0.929384312,0.946573594,0.313035816,0.940478181,0.952329941,,
10.43021989,0.330121017,0.92547119,0.943553211,0.320684512,0.933455944,0.946791444,,
10.39242935,0.326118124,0.928020104,0.945597612,0.352804681,0.905032603,0.927532534,,
9.983048677,0.32555822,0.929599713,0.946898102,0.328097026,0.927269687,0.942845881,,
10.46641898,0.328978094,0.926081493,0.944059554,0.333570858,0.919913058,0.937605836,,
10.45705509,0.326499745,0.928522707,0.945995063,0.333388408,0.916067547,0.934327577,,
10.45915222,0.326018725,0.928163705,0.945738536,0.327048351,0.926600903,0.942696776,,
10.40500689,0.326364266,0.927373901,0.945141958,0.316296389,0.934960709,0.947959866,,
10.51905489,0.327935157,0.926871298,0.944744337,0.312407891,0.938137435,0.950706102,,
10.46664548,0.328573765,0.925614791,0.943533003,0.308454454,0.941146965,0.952303523,,
10.42237377,0.325093386,0.929204811,0.946462507,0.317699472,0.932954355,0.946936615,,
10.50883746,0.323914911,0.930317717,0.947305552,0.32402271,0.927102491,0.942646672,,
10.4624548,0.325083339,0.929204811,0.946520584,0.331599603,0.922086608,0.939069038,,
10.46008372,0.325606078,0.929456112,0.946622117,0.327055474,0.925764922,0.941793393,,
10.45949197,0.322493087,0.931071621,0.947840261,0.328662316,0.925932118,0.941810062,,
10.53393126,0.322448852,0.931502423,0.948129622,0.319001873,0.931282394,0.94577121,,
10.46172786,0.323432993,0.929420212,0.946651471,0.329315831,0.924427353,0.940682415,,
10.44328046,0.324540023,0.928845809,0.946173483,0.324102908,0.92760408,0.942988808,,
10.51391935,0.32317893,0.930245916,0.94713069,0.322603703,0.929777629,0.944939696,,
10.47642636,0.326326417,0.930784419,0.947739347,0.318001638,0.935629493,0.948134178,,
10.53851748,0.324347217,0.930533118,0.947385594,0.321393708,0.930446414,0.945002644,,
10.47142029,0.320704986,0.931789625,0.948464793,0.321278234,0.928105668,0.943271768,,
10.39722443,0.319703813,0.933692335,0.949783856,0.319544236,0.931951179,0.946650937,,
10.46239805,0.322039555,0.930461318,0.947319753,0.322535038,0.929777629,0.944341373,,
10.46863389,0.319623515,0.932615329,0.948934897,0.31681489,0.932954355,0.9471882,,
10.45974994,0.321961128,0.931610124,0.948068588,0.311864396,0.940645377,0.952329797,,
10.51873732,0.32015611,0.93265123,0.949010654,0.320670029,0.93061361,0.945744542,,
10.41565657,0.320788162,0.933082032,0.94927339,0.323880871,0.929777629,0.945212627,,
10.52043104,0.319569498,0.93268713,0.949053066,0.308872521,0.93880622,0.951186983,,
10.52759361,0.320686749,0.932974331,0.94928422,0.313900421,0.935963886,0.949035263,,
10.42680168,0.318739821,0.933117932,0.949359863,0.316783975,0.936967062,0.95025729,,
10.39805102,0.317599439,0.933800036,0.949853149,0.311983377,0.939140612,0.950810811,,
10.46428442,0.320043287,0.931035721,0.947757744,0.313179076,0.941314162,0.952816239,,
10.55234981,0.319777163,0.932435828,0.948811402,0.322988063,0.92844006,0.944023019,,
10.52268863,0.317950877,0.933369234,0.949587136,0.317397734,0.933121552,0.946893255,,
10.53359222,0.317554557,0.934123138,0.950115536,0.312322209,0.939140612,0.951284797,,
10.47110748,0.317534338,0.934374439,0.950296373,0.320759336,0.930112021,0.945072273,,
10.52312875,0.316964835,0.933441034,0.949663336,0.316907873,0.932285571,0.946250829,,
10.45175266,0.316946924,0.934302639,0.950258222,0.310635199,0.942986123,0.954442218,,
10.56284046,0.316918341,0.93279483,0.949122139,0.320422391,0.929276041,0.944232037,,
10.5137763,0.316380335,0.934948842,0.950803649,0.312512368,0.938471827,0.950497713,,
10.40447855,0.319159335,0.932579429,0.948872917,0.313002398,0.941481358,0.952804746,,
10.46018076,0.314846073,0.936959253,0.952165622,0.31254979,0.936799866,0.949814126,,
10.46452236,0.317658014,0.933835936,0.949944322,0.322447906,0.928774452,0.944284593,,
10.4670763,0.315347112,0.936959253,0.952199477,0.319474359,0.93061361,0.94557377,,
10.4474709,0.316103518,0.936779752,0.952124623,0.313524157,0.938137435,0.950719233,,
10.52573919,0.314102711,0.935954048,0.951516469,0.317830433,0.933288748,0.94721524,,
10.52181292,0.3184301,0.933369234,0.949513084,0.313137362,0.938973416,0.951065827,,
10.48341084,0.315359448,0.935810447,0.951449984,0.316260695,0.933121552,0.947089947,,
10.50816393,0.315348142,0.933692335,0.949841132,0.31840691,0.931783983,0.946131503,,
10.39784884,0.319014654,0.934374439,0.950285559,0.31421119,0.936465474,0.949346841,,
10.45980453,0.314363918,0.937713157,0.952800675,0.322692206,0.928607256,0.944,,
10.53001714,0.314316107,0.936241249,0.951673469,0.314114928,0.936967062,0.949605668,,
10.45118356,0.315249675,0.935271944,0.951006766,0.316139827,0.934793513,0.948220924,,
10.45824361,0.313351825,0.936600251,0.952003044,0.312173237,0.937301455,0.950152865,,
10.47212934,0.315786519,0.935487345,0.951217526,0.31757766,0.933790336,0.94778481,,
10.47604918,0.315281715,0.935882247,0.95142251,0.32054311,0.92844006,0.943713835,,
