train_loss,val_loss,train_accuracy,val_accuracy,train_f1,val_f1,train_precision,val_precision,train_recall,val_recall,train_time
0.6453369131652258,0.7037750253310571,0.6536682347670251,0.30680668016194335,0.5284633502630963,0.46819468547023296,0.5340854406439627,0.30660164622529174,0.5451372058758559,1.0,26.16963815689087
0.5685922971335791,0.5582416332685031,0.8158826164874552,0.8354314271255061,0.7287020406819756,0.7003924980454109,0.7673312174928988,0.7729515356262702,0.7068402865617994,0.6483442271149941,25.586684226989746
0.5039910776640779,0.5214696801625766,0.8966957885304659,0.8590270748987854,0.8472063990273125,0.7661468400638386,0.8762837409770067,0.7259959663127903,0.8312803375518384,0.8139480207316411,25.931969165802002
0.4598198193375782,0.5035834289514102,0.9381440412186379,0.8548836032388665,0.9078803744878648,0.7506994750752736,0.9210151110081704,0.7542072351456706,0.9064690633190936,0.7509380035998288,25.7002010345459
0.43055044130612447,0.708929758805495,0.9558047715053763,0.3066801619433198,0.9323602197200829,0.44853477113286505,0.9445964435103784,0.29363269548640364,0.9316768437787268,0.9629665370893101,26.084250688552856
0.4109766057101629,0.5738009856297419,0.965672603046595,0.8021571356275303,0.946758053465783,0.7200781120373596,0.9557492588275077,0.6202918236175096,0.9490473929507826,0.8605446904143962,25.677290201187134
0.39528644693795073,0.6096478884036725,0.9717517921146953,0.7240479504048583,0.9548549203227743,0.16868438677423755,0.9648354216096681,0.8133949383949385,0.9560531216927952,0.09613860397759444,25.694345474243164
0.3836411843376775,0.5027371140626761,0.9753332213261648,0.8528593117408907,0.960053851300981,0.7861502245189427,0.9719299431485089,0.6889170191980418,0.9594226940663131,0.9197483322139343,26.174068450927734
0.3745679772028359,0.585295516711015,0.978399417562724,0.7460621204453441,0.9641522059033344,0.6239098379648899,0.976263058230834,0.5626631850433343,0.9631773570619657,0.7031601003118811,25.692979097366333
0.368467297925744,0.4491856098175049,0.9792394713261648,0.8876360070850203,0.9655943216702058,0.8135873773549265,0.9783153858882433,0.8182284233178815,0.9640389603314048,0.8111752352136908,25.71549391746521
0.3627562404319804,0.45002167499982393,0.982437275985663,0.8737348178137652,0.9693515188002035,0.7698931912021527,0.9820507060555533,0.8504835605163217,0.9677668716648399,0.7044621024249642,26.079389333724976
0.35672120573700117,0.5589940318694482,0.984237791218638,0.7782768218623481,0.9720775842431356,0.6871304946731613,0.9732601211431793,0.5847324722267344,0.9710850108577874,0.838240144354313,25.850589275360107
0.35387993692069925,0.4220667573121878,0.9843581989247311,0.9127182439271255,0.9727422806859315,0.858969108885699,0.9855443344245742,0.820046753808345,0.970961235055476,0.9040804553259338,25.711957454681396
0.34934454964053246,0.5622364970353934,0.9870631720430108,0.7621299342105263,0.9760110210009973,0.5654296066559413,0.987618016567469,0.6364166218233609,0.9753570926793999,0.5094540940651539,25.94476008415222
0.3469782987589477,0.5108522704014411,0.9874719982078853,0.8191422064777327,0.9764012339070055,0.7131824876745594,0.9886189579183812,0.6874417171050824,0.9751055163612513,0.7450840011535911,25.645588159561157
0.3440928045780428,0.5820149733470037,0.9881972446236559,0.7027138157894737,0.9779126326450799,0.012345906342067883,0.9900671174720515,0.7692307692307693,0.9766632948642938,0.00628444574731525,25.917059898376465
0.3420798679192861,0.4575579556135031,0.9884072580645161,0.8555636386639676,0.9785683925464354,0.7608121711608665,0.9904595514523136,0.7667078623756262,0.9775490141970166,0.7588246291369379,25.843798637390137
0.3421414359923332,0.4565937266899989,0.9876456093189964,0.8613518471659918,0.9766993573984113,0.7704877283695917,0.9885720778148916,0.7719964607372025,0.9757692593391538,0.7711576655889348,25.713334560394287
0.3380420063772509,0.4540197230302371,0.9894993279569892,0.8726752277327935,0.9800966868523723,0.8090462588733297,0.9922186645241562,0.737952673155686,0.9788754643380737,0.8987474614783817,25.47299337387085
0.33726807883990706,0.4337814771212064,0.9892781137992832,0.8741301872469636,0.9797337215314431,0.7913324788304995,0.9914176303315974,0.7692572808196582,0.9789462424367628,0.8203836441889428,25.983922243118286
0.33590557562407625,0.44319189282564014,0.9898353494623656,0.8838879048582995,0.9810248561546115,0.8179964433154863,0.9924914391764944,0.756994758497156,0.9804451924891614,0.8910831985936105,25.595499753952026
0.33426962840941643,0.4321070405153128,0.9905493951612904,0.8885374493927126,0.981634566761264,0.8186270042847569,0.9930097779906466,0.806206688546964,0.9811041915151524,0.8327859312287118,25.710191011428833
0.33329680946565443,0.43613128478710467,0.9915462589605735,0.8734501518218624,0.9821825489900814,0.7885138258100478,0.9939291389106317,0.8088499916894232,0.9812724944038035,0.7719150261592228,26.064819812774658
0.33318687446655765,0.4590292297876798,0.9906754032258065,0.8565441548582995,0.9824433930840537,0.7699907569201591,0.9934399656120408,0.7533570740249711,0.9823007781402323,0.789139353969995,25.68660616874695
0.33150205721137344,0.4192452522424551,0.9913894489247311,0.9049848178137652,0.9827245242370622,0.8455093141680599,0.9938109235860118,0.8297048892229989,0.9825036354397602,0.8627391650044275,25.595824480056763
0.33078011293565074,0.4464293053516975,0.9915882616487456,0.8711886386639676,0.9828990854935719,0.7803552986728254,0.9945345141920309,0.7948703135059915,0.9820988614422399,0.7691334260854783,25.863221645355225
0.3302324318116711,0.6327940821647644,0.9914734543010753,0.6686962297570851,0.9836133256621026,0.5587100797548863,0.9891756804932794,0.4650690716848668,0.9829416823089118,0.7036667935185652,25.58066725730896
0.3286845488573915,0.4549815379656278,0.9926075268817204,0.8575246710526316,0.9843839764547838,0.7615094258521435,0.9952605072461429,0.7846898345407959,0.9843291738313934,0.7435751558397434,25.698687076568604
0.32818396886189777,0.39886730909347534,0.9920138888888889,0.919929782388664,0.9840629278037916,0.8688937037381345,0.9948935462704663,0.8505262977875208,0.984044955270672,0.8894258335892326,25.614210844039917
0.32843477719573566,0.4140297839274773,0.9926075268817204,0.9042415232793523,0.9849892638441957,0.838684580736808,0.9904540580791997,0.8183467558496333,0.9840054383792222,0.8624914858881463,26.007830381393433
0.32782930327999976,0.4219191257770245,0.9919354838709677,0.9006990131578948,0.9839876423917295,0.8369834183284692,0.983761837766334,0.8192614583164025,0.9842739033912319,0.8623857613251752,25.858800411224365
0.3262645624658113,0.5499522158732781,0.9937415994623656,0.7672855516194332,0.9876887851430187,0.4604852704507518,0.9934489507558619,0.7202698609392902,0.9867461594093921,0.34216986950134837,25.613476753234863
0.3257216461884078,0.42095855336922866,0.9942036290322581,0.8915422570850203,0.9877483056329734,0.8087012300033343,0.993154317311001,0.8483985198133384,0.9864984845008231,0.7746625892520691,25.757433652877808
0.32629865087488646,0.3989816697744223,0.9929855510752689,0.9204516700404858,0.9849143153291968,0.8674027832978268,0.9891430731001349,0.8518165231018878,0.9837064084315185,0.8857868907188073,25.71070909500122
0.3266010662560822,0.42261858169849104,0.9923023073476702,0.8899765941295547,0.9841941600103545,0.8288111382803985,0.995325306251227,0.7692888992416681,0.9838988307831286,0.8997814960693356,25.723602533340454
0.3248871119432552,0.4660804867744446,0.9940776209677419,0.8437816295546559,0.9857773802804977,0.7409328612958576,0.9863335877482853,0.7100035401336752,0.9852622102830173,0.7772727740524061,25.70441722869873
0.3251988205217546,0.421877757861064,0.9928847446236558,0.8916845900809717,0.9851065639247542,0.8355608070098512,0.9854549124797639,0.7739113756721114,0.9848453357910812,0.9105644683168281,25.87649369239807
0.3247193979319706,0.4590830344420213,0.9936155913978495,0.8411405617408907,0.9857961875705654,0.7774905126332107,0.9970352427035664,0.6796855674989649,0.9853674968809969,0.9128152954493601,25.95857048034668
0.324281213104084,0.481314487182177,0.9940776209677419,0.8155996963562753,0.9858410818138054,0.718450590019471,0.9969440726101949,0.6706926854696924,0.9855360224443003,0.7761371458029189,25.669058322906494
0.3237069643312885,0.41449843920194185,0.9930639560931899,0.8913208502024291,0.9860139748731532,0.8083263424808778,0.9972028741348721,0.8672570967481653,0.9856299036819839,0.758074324837252,26.08278489112854
0.32477297321442633,0.5766239120410039,0.9930275537634409,0.7108426113360324,0.986928952658131,0.649498564294949,0.9893081232627691,0.499934369938748,0.9871388986868875,0.9403402242436388,25.865347862243652
0.3237155634228901,0.5003805229297051,0.993189964157706,0.793221786437247,0.9859090025164636,0.7142574096142302,0.9973690028282757,0.6084413141550404,0.9852579659463376,0.8679061062489943,25.759170293807983
0.3230085818357365,0.46900928708223194,0.9936827956989247,0.8373292004048583,0.9899123958104447,0.7357308642892781,0.9908209534978222,0.7058414219079173,0.9896962321646302,0.7724178849137693,26.05854058265686
0.32290339886501274,0.39922781403248125,0.9938676075268817,0.9120540232793523,0.9868439107695357,0.8462705460553412,0.9919673937274118,0.8747008415034911,0.9865229974088695,0.8221891987729878,25.71501588821411
0.32239051115128303,0.4222358213021205,0.9943716397849462,0.8900398532388665,0.9893469332780369,0.8061640240912438,0.9926527634853748,0.8475340860312719,0.9883546797606259,0.7716453236645743,25.954548120498657
0.3219048143714987,0.4196732250543741,0.9944136424731183,0.8919059969635627,0.988148244123977,0.8132341852656645,0.991128625065895,0.8429389818376196,0.9876391830192577,0.7876244465732755,25.721452951431274
0.32127423440256425,0.400900267637693,0.9952116935483871,0.9155807186234818,0.9877847681281706,0.8536109305154087,0.9933477755787943,0.8803570094611017,0.9872551643157123,0.831362393304403,25.869630813598633
0.32228427067879706,0.4314886744205768,0.9937780017921146,0.8789220647773279,0.9884779601603968,0.7732828752343646,0.9940023846107096,0.828796820311784,0.9875559741168211,0.7266251085609634,25.979408264160156
0.32197612427896066,0.41142520766991836,0.9943296370967742,0.9001771255060729,0.9918174876742921,0.8243312914468996,0.9928707249637093,0.8514337899868022,0.9908969169740554,0.8025556716476351,25.905086040496826
0.32098364733880563,0.49567381464518034,0.9946656586021505,0.8054782388663967,0.9891630312535421,0.721613942643618,0.9936709232464259,0.6117590480098843,0.9883013447735718,0.8831376696929151,25.709495067596436
0.32236164359636205,0.4231284948495718,0.9937612007168459,0.8853744939271255,0.9883024867480539,0.8128529584955049,0.991724377689236,0.7928616906184733,0.9873069156554121,0.8360228627265618,25.72639298439026
0.3220010983046665,0.4292605519294739,0.9948756720430108,0.8826069078947368,0.9911215126709563,0.8061455970820883,0.9926799401121681,0.7803355115806659,0.9900279678302207,0.8349554394294957,25.62669563293457
0.3217050548522703,0.40375311787311846,0.9945816532258065,0.9061076670040487,0.9870884345386681,0.8409328531022771,0.9867478351783944,0.8429012146792781,0.9874633791910643,0.839900308299063,26.005200386047363
0.32121160946866517,0.4968730165408208,0.9946656586021505,0.8032799848178137,0.986849184957481,0.7133146520689065,0.9978137000058808,0.630178279906437,0.9866792816760964,0.8232893688965714,26.210765838623047
0.3207468976897578,0.41730265892468965,0.995127688172043,0.8898975202429149,0.987706901462011,0.8225487248061452,0.9983787114937924,0.7954492964713535,0.9878143695560319,0.8542975032735316,25.933769702911377
0.3204522706488127,0.43231351100481474,0.9952536962365591,0.880582616396761,0.9874565555551609,0.8109380653711121,0.9983590736202226,0.7825280895577552,0.9873266968057005,0.8443658078240539,25.937565326690674
0.31980060569701657,0.4028671888204721,0.9955477150537635,0.9085905870445343,0.9884995967469827,0.8466411160610273,0.9994189451341221,0.8647539249291653,0.9883422797969412,0.8314736364265415,25.713030099868774
0.31999039842236426,0.6178269753089318,0.9950436827956989,0.673345774291498,0.9903294029597188,0.5819934431844541,0.9930225518987138,0.4668025731931827,0.9892894786292612,0.7760325839842166,25.97427535057068
0.3193920946890308,0.4068590058730199,0.9954637096774194,0.9014423076923077,0.9891212607490892,0.8214742572756718,0.99494241733363,0.8835797839602773,0.9884388169993547,0.7691838179490792,25.960699558258057
0.31966118530560567,0.7380349315129794,0.9957997311827957,0.529810855263158,0.9896657367379609,0.5090857709827822,0.9932144648722434,0.37113896227999443,0.9889229515913364,0.8177247818798171,25.881896257400513
0.31969012880838044,0.40310214574520403,0.9953797043010753,0.9134773532388665,0.990485912867164,0.8540601103479155,0.9944212943210109,0.860073895304037,0.9895844508862934,0.8502909922529606,25.912302017211914
0.3197607564669783,0.42047571218930757,0.9952536962365591,0.884488866396761,0.9910503122469656,0.8049618868592037,0.9943749864340893,0.8188025461549148,0.9895142484456649,0.7937736824134164,25.594017505645752
0.3216725206503304,0.4011014264363509,0.9939880152329749,0.9094129554655871,0.9889253192248914,0.8456031127655979,0.9905452091798971,0.8676885928023169,0.9882705474379666,0.8269785718003507,25.993932962417603
0.3198236932036697,0.47226639894338757,0.9953797043010753,0.8367914979757085,0.9881549348245163,0.7327517036797513,0.9882345307029872,0.7233913144240807,0.9880884547346108,0.7460797028714539,25.714717626571655
0.31914848922401345,0.4176877805819878,0.9958837365591398,0.8886165232793523,0.988194450156383,0.8241831789415252,0.9886060867881985,0.783701448930869,0.9877951796889372,0.8723176750544318,26.15928840637207
0.3186040863554965,0.43131861090660095,0.9959677419354839,0.875237221659919,0.9884075435177794,0.8015139651081916,0.9992814305914762,0.7687693660473983,0.9882944147066505,0.839545397525328,25.94431185722351
0.3191740275711142,0.40573376187911403,0.9955057123655914,0.9080686993927126,0.9883397038395764,0.8494349386833254,0.9995225586584408,0.84376459321762,0.9879197763877705,0.8578359999163585,25.88474702835083
0.31937222519228536,0.40655494653261626,0.9952116935483871,0.9070881831983806,0.988335634782721,0.8460130432322241,0.9991410198710166,0.8347305651062585,0.9882914345508832,0.8596988523746661,26.07773494720459
0.31856888468547534,0.4521701129583212,0.9958417338709677,0.857429782388664,0.989695269110661,0.7873836627584634,0.994848134048695,0.7071517970591455,0.988934024523737,0.890222002273133,25.93280839920044
0.31885333599582794,0.5584648847579956,0.9956317204301075,0.7465049342105263,0.9905112783506858,0.5133836675167338,0.9972009317150191,0.5883991403099158,0.9892376363259813,0.45715736185127825,25.928133249282837
0.3184486278282699,0.41744659955684954,0.9961777553763441,0.8907198886639676,0.9910859658242599,0.8230457052290236,0.9959176665840026,0.7935620824649484,0.9896100949600716,0.8568612095763961,25.721970319747925
0.3193298277034554,0.42252403039198655,0.9948756720430108,0.8871773785425101,0.9890006059107423,0.8098498902806575,0.9941334274874298,0.8036525530837988,0.9886379262558317,0.8180569601740617,26.031580924987793
0.3200171019441338,0.5588681606146005,0.9948336693548387,0.745840713562753,0.9907783540635271,0.5947752889613305,0.992819873350157,0.5744214223601799,0.9898788228318426,0.6206493212535362,25.86889123916626
0.31849017675204944,0.403186179124392,0.9957577284946236,0.9091124746963563,0.9920743170310825,0.8448471219719857,0.9945148798130657,0.8543628855869115,0.9908438543794281,0.8361670881627185,25.872140407562256
0.3186400689745462,0.42860400905975926,0.9958837365591398,0.8828441295546559,0.9917399853402027,0.8035124846081044,0.9953607609084654,0.8080340562214761,0.9902365516499256,0.7999470501064092,26.286059856414795
0.3182621434811623,0.48789978944338286,0.9959257392473119,0.8151568825910931,0.9924343916244535,0.7524141709269065,0.9950805916403631,0.6423502349725638,0.9911336135168748,0.9146735890712409,25.75980520248413
0.3190602660179138,0.42981165189009446,0.9955477150537635,0.8782578441295547,0.9927776401064787,0.817843223068852,0.995437460889174,0.7339099538789977,0.9914110367638016,0.9255881221343026,25.65934181213379
0.3197467230981396,0.39006046377695525,0.9948756720430108,0.9215903340080972,0.9921173256740526,0.8734044031569633,0.9927970217611899,0.8538071802238834,0.991696467769235,0.895812910854802,25.956783056259155
0.32009734421648006,0.4081043257163121,0.9942456317204301,0.8990542763157895,0.9890909699265507,0.8336102921954152,0.993783688781422,0.8324682521527323,0.9886935915108473,0.8380494232282859,25.70341944694519
0.3187235879000797,0.5067287064515628,0.9956317204301075,0.7847450657894737,0.9901896887556417,0.7071873111320812,0.9964957405385009,0.5956453623709984,0.9892654131872992,0.8756052716634505,26.20014715194702
0.31755133918536604,0.497681587934494,0.9966397849462365,0.7974443319838057,0.9928239140125166,0.7068915981432883,0.996628222915944,0.6087584895416897,0.9912445429259555,0.8486407728770154,25.835208415985107
0.3183233119467253,0.4095733968111185,0.9957157258064516,0.9033400809716599,0.9913526612485031,0.8442005928431866,0.9960030078509591,0.8052866129176613,0.9900881429710746,0.8902490486179708,25.815577268600464
0.31781047614671853,0.3977979582089644,0.996051747311828,0.9173045293522267,0.9921936295228364,0.8628781243025803,0.9926069025891862,0.8455682721669089,0.9918255923435381,0.8825683605491399,25.849900484085083
0.3177255145324174,0.5092315650903262,0.996135752688172,0.7864688765182186,0.9889606114187977,0.6953873950104803,0.9998843796970748,0.6112183722630031,0.9887925957892015,0.809083624867985,25.441492080688477
0.31786174895942854,0.4382477173438439,0.9959257392473119,0.8734501518218624,0.9901481844611927,0.7989325985173608,0.9952665686848247,0.7424232029423794,0.9891745489419297,0.8674037174263145,25.889164447784424
0.3184652498332403,0.4114334537432744,0.9952956989247311,0.8998133856275303,0.9900542998157802,0.8453870498240279,0.9949756746711451,0.7959563186245107,0.9891957375827944,0.9061633461079631,25.95003581047058
0.3181863311798342,0.3968211320730356,0.9957157258064516,0.9183483046558704,0.9891608468252042,0.8649297891585443,0.9996353343144684,0.8572939161226926,0.9887844206511494,0.8756923085767594,25.696973085403442
0.31785288613329654,0.4014937442082625,0.9959677419354839,0.9092706224696356,0.9904944544832665,0.8462032193768707,0.9948008846335675,0.8738359988288218,0.9895973423305501,0.8236019492114308,25.85272765159607
0.3174476988853947,0.39443798477833086,0.9969758064516129,0.9185064524291497,0.9932019694380846,0.860561400425972,0.9967284873936999,0.876771650644077,0.9916260974481604,0.8487140190670429,26.01826286315918
0.31785909142545477,0.3908695968297812,0.996051747311828,0.9215112601214575,0.9930857638246967,0.8691923360772196,0.9968873797396718,0.8649931586735687,0.9916303119030355,0.8774840232606406,25.694849729537964
0.3178139751957309,0.4215340706018301,0.9963877688172043,0.8885374493927126,0.9937024203089464,0.8329234295190268,0.9950768117388289,0.7578689433341107,0.992708524128984,0.9276656358874037,25.96688985824585
0.31905586008102665,0.3997766971588135,0.9952060931899641,0.9086696609311742,0.9890487544818626,0.8506604249780422,0.9975238392232093,0.8366019148423061,0.9877920640646622,0.8694152171761456,25.865427255630493
0.31859123097952974,0.38931981646097624,0.9958781362007167,0.9247374746963563,0.9928032120816636,0.8776554198877721,0.9955737283425122,0.8554596486200511,0.9913608984038726,0.9022513349195719,25.918654918670654
0.3179930063986009,0.42242071949518645,0.9962197580645161,0.8902612601214575,0.9941372033155964,0.8263028178666599,0.9963084354901566,0.7871335846169729,0.9930331231547075,0.8713584755906063,25.934781789779663
0.31757392421845465,0.38673709676815915,0.996135752688172,0.922634109311741,0.9929646451130439,0.8720957480724115,0.9944040540510413,0.8589202467064466,0.9920119876712473,0.8871803592607951,25.873557806015015
0.3174249872725497,0.4015610126348642,0.99609375,0.9097134362348178,0.9940697676949957,0.8523811262942742,0.9953943321029263,0.8365669062566556,0.9931734033618417,0.8724889113367623,25.756133317947388
0.3175499561012432,0.3941943530852978,0.9963037634408602,0.920151189271255,0.9925186330345015,0.8659545792030362,0.9972528499517881,0.8517038402596052,0.9911607493973215,0.882376737261586,25.700188398361206
0.31790196543098775,0.4088004483626439,0.9958417338709677,0.9011576417004049,0.994653529096945,0.8443208420435258,0.9946450885731013,0.8056627672403338,0.9946663042297685,0.8877008900069049,25.963011026382446
0.3176648565517959,0.40205918137843794,0.9957157258064516,0.9081319585020242,0.9891015098944094,0.8517385558759764,0.9923756574797673,0.8297655153628409,0.9887615494408141,0.8780997523147271,25.69730567932129
0.31716256788981856,0.38462674617767334,0.9967657930107527,0.9307470900809717,0.9937807425872391,0.8862687757419716,0.9977883828010686,0.8753409540234297,0.9921983309950722,0.8992285485352036,26.04986000061035
0.3174656443698432,0.48135921129813564,0.9963037634408602,0.8224474949392712,0.994561319809045,0.7642155753447579,0.9955007858049122,0.6423329650137017,0.9938091057646581,0.9448891569053066,25.83449363708496
0.31838918244966896,0.4142208741261409,0.9954217069892473,0.8999399038461539,0.9930493537785066,0.8350355243047661,0.9937207351483262,0.8262682561211913,0.9924763332690734,0.8458311563538998,25.97370219230652
0.3174111445744832,0.3842953283053178,0.9965137768817204,0.9286437246963563,0.9940078111024374,0.882624868320173,0.9950174450633531,0.8824664508487131,0.9932670269938797,0.8850770146594079,25.708028078079224
0.31728533679439175,0.670052170753479,0.9957577284946236,0.6178517206477733,0.9890822894499909,0.596469451589328,0.989247311827957,0.4370470854830538,0.9889189592818626,0.9437697193948801,25.95195460319519
0.31699721210746357,0.7336965982730572,0.9966817876344086,0.5280870445344129,0.9940932104866532,0.5275541765934575,0.9962049335863377,0.37844855391891,0.9928717569761771,0.873775694234361,25.922221183776855
0.31676107388670727,0.5819534980333768,0.9966817876344086,0.7166150050607288,0.9930058514119235,0.6147856262638643,0.9958839547549223,0.5096600223838068,0.9917864197717026,0.7819661349918097,25.898985862731934
0.3168287546403946,0.3880636554497939,0.9965137768817204,0.9230136639676113,0.9910804576804644,0.8750400153816874,0.9989247311827958,0.863129640989523,0.9900922638250379,0.8890563642842827,26.012651920318604
0.3171230871831217,0.38345826818392825,0.9968497983870968,0.9313480516194332,0.9944957468275125,0.8922267745594225,0.9961499074402301,0.8545538453135626,0.993336908700619,0.9343459356842801,25.851465463638306
0.31950700379187064,0.40679115744737476,0.9949176747311828,0.8987696103238866,0.9910522031850981,0.838260439138293,0.996538300039871,0.7750705773852766,0.9896711091126994,0.9188577319460559,25.961920261383057
0.3170862659331291,0.7998780837425818,0.9972698252688172,0.4834893724696356,0.9960182077296601,0.5194625743347999,0.9970170430335576,0.3625858330663391,0.9951628563598461,0.9250269040159156,25.72485852241516
0.3171424916995469,0.39115630434109616,0.9969338037634409,0.9206888917004049,0.9947845322202872,0.8654279393995504,0.9973034234291053,0.8759358248037459,0.9934721340417452,0.857794762790459,25.753604412078857
0.317016101332121,0.40862331023583043,0.9967657930107527,0.9013790485829959,0.9948738411180617,0.8293888477720659,0.9962813620071684,0.8534331754275828,0.9938440672083834,0.8080488788309393,25.889485836029053
0.3168475076716433,0.3906476703973917,0.9968077956989247,0.922634109311741,0.9948539256772607,0.8711972048627471,0.9952760764030671,0.8788048126081166,0.9944659242769501,0.8641524406598146,25.892202138900757
0.3179007544312426,0.5058584602979513,0.9956317204301075,0.798345774291498,0.9929574256510421,0.545251059088177,0.9936863080582929,0.8243539983850824,0.992487114421503,0.4090978476334705,25.6280996799469
0.3172711765253416,0.41654568222852856,0.996051747311828,0.8937879554655871,0.9891410920680394,0.8334678030166843,0.989247311827957,0.7884354384293543,0.9890359341972246,0.8860097768937265,25.887065410614014
0.31662645198965583,0.3941845641686366,0.9965977822580645,0.9173045293522267,0.991801277489601,0.8544898284949234,0.9978682506648167,0.8614697250403517,0.9907174367885786,0.8494755645911103,25.85383701324463
0.3163334099195337,0.4175362793298868,0.9973118279569892,0.8932660678137652,0.9950132460651394,0.8289794042606808,0.9966148944643569,0.8036008734412603,0.9939836149513569,0.8575502076697054,25.707807064056396
0.31648679766603693,0.4127917541907384,0.9966397849462365,0.9000347925101214,0.992584352984798,0.8407974925175543,0.9984639016897082,0.797357352931276,0.9912846632710809,0.8916804654791489,25.83812713623047
0.3172032708121884,0.39253968917406523,0.996130152329749,0.9176050101214575,0.9952091592411721,0.8588887141632011,0.9948547361465384,0.881175357367996,0.9956025029757748,0.8385000228365154,25.85007095336914
0.3170649482998797,0.4317077925572029,0.9964717741935484,0.8777201417004049,0.9923323782943474,0.8133426757207023,0.9957756220466476,0.7484379004025825,0.9913298482723447,0.8941210003159946,25.926758766174316
0.31672406036366696,0.40332661683742815,0.9965557795698925,0.9062658147773279,0.9938328028412727,0.84642695875672,0.9957832595403753,0.8081754663453974,0.9926927342688794,0.8909467561249842,25.47402834892273
0.31735879567361647,0.3932433220056387,0.9958837365591398,0.9224127024291497,0.9932932330273507,0.874893558353567,0.995292679244451,0.8591514626990219,0.9922747480387354,0.8923990279054267,25.76004195213318
0.3163793916984271,0.3942232269507188,0.9973538306451613,0.9188069331983806,0.9954535613769214,0.8611856727546591,0.9964717741935484,0.8564582644612042,0.9946869070208728,0.86715943207146,26.093822240829468
0.31573608421510263,0.38735456650073713,0.9976478494623656,0.923836032388664,0.9949820788530466,0.8727171889571382,0.9978494623655914,0.8738045082035686,0.9935483870967743,0.8734467645283,25.83980703353882
0.31625705540821114,0.4475077780393454,0.9973118279569892,0.8615099949392712,0.9956870487755396,0.7961588973299027,0.9965167348175071,0.713213571438707,0.9950080194364567,0.9025945160669568,25.774336099624634
0.3180517336373688,0.4805945547727438,0.9955057123655914,0.8267174848178137,0.9926064727841062,0.6495114991924501,0.9941332351644373,0.8346404179182715,0.9916577715919638,0.5342297010494252,26.114999294281006
0.31686792001929337,0.3803476828795213,0.9966817876344086,0.930446609311741,0.9942802616738203,0.884318902979615,0.996392537534554,0.8900001342889645,0.9931571070908164,0.880515284793248,25.931949377059937
0.315852399474831,0.472591581252905,0.9978158602150538,0.8303390688259109,0.9958273150377146,0.7171326168009126,0.9980645161290321,0.6986675713928652,0.9944956477214542,0.7405574676182618,25.968043088912964
0.31642770542893356,0.5246653717297775,0.997059811827957,0.777834008097166,0.9963103520978284,0.7183005204392211,0.9959179609717244,0.5864320976391458,0.9967517921146952,0.9306452214789018,25.65135908126831
0.31683807507638007,0.3990911107796889,0.9967657930107527,0.9152011639676113,0.9937747594793435,0.8629391958207501,0.9957924263674613,0.8452657159110774,0.992707947101718,0.882370697536492,25.67245626449585
0.3169514261266237,0.3874501585960388,0.9963037634408602,0.9291656123481781,0.9891844306105766,0.8821676397533343,1.0,0.8780730071637828,0.9891222805701425,0.8876841196227367,25.86350917816162
0.3164100076562615,0.3829171359539032,0.9966817876344086,0.9322494939271255,0.9906652487297648,0.8847397587344931,1.0,0.8838811107007826,0.9900063251106893,0.8865236102408562,25.757760763168335
0.31650782144197853,0.4773926001328688,0.9965977822580645,0.8243927125506072,0.9910209511140672,0.7593064965566422,0.998805256869773,0.6391272700661841,0.9902248289345064,0.9384009721652296,25.97203278541565
0.31633799691354075,0.42887965073952306,0.9973538306451613,0.8833502024291497,0.9951046947712802,0.8174743317831942,0.9984057161476516,0.7666280715154523,0.9935941432166553,0.8779449538516116,25.676429510116577
0.3164447603687163,0.39734593492287856,0.9973118279569892,0.9086696609311742,0.9955878859398172,0.8557227382616994,0.9967863677541097,0.8281517368411946,0.9946850461558243,0.8897644796496748,25.853205680847168
0.3169109843751436,0.44754626659246594,0.99609375,0.8570027834008097,0.9947276477040381,0.7857491000486098,0.9949730026868877,0.7205105832918329,0.9944955672806126,0.8654888489957447,26.003827810287476
0.3166614280593011,0.3906920300080226,0.9963457661290323,0.9228555161943319,0.9906401961404222,0.8670349321934255,0.9985364396654718,0.8965195598813926,0.9899400330851944,0.8420101716618387,25.6284499168396
0.3157411451621722,0.386665573486915,0.998067876344086,0.9248165485829959,0.9966121667403153,0.8715816366422028,0.9980609906575004,0.8751888849384953,0.9955724225173941,0.870359218639482,25.879528284072876
0.31600464640125153,0.5071736161525433,0.9976898521505376,0.792478491902834,0.995268817204301,0.7096362745822004,0.9984264358772619,0.6067101349651258,0.9937275985663081,0.8599810581864781,25.959174871444702
0.31612617706739776,0.428014154617603,0.9969338037634409,0.8792225455465588,0.9946329171087784,0.7897477894719628,0.996352930223898,0.834827099038876,0.9936192839418645,0.752985401494021,25.725462198257446
0.31712345122009195,0.42678830944574797,0.99609375,0.8838088309716599,0.9948186528497409,0.824439537820601,0.9943676395289299,0.7618227114022866,0.9953567937438904,0.9031873250001582,25.71605682373047
0.3162016689136464,0.3934419338519757,0.997059811827957,0.9203093370445343,0.9926207041956567,0.866200235812433,0.9978494623655914,0.8548561016253847,0.9913453973249409,0.8796445787232023,25.8874249458313
0.31618759676974306,0.39028955652163577,0.9973538306451613,0.9211317054655871,0.996063345921218,0.8730317065668569,0.9965523475293102,0.8485990987916814,0.9956295312506704,0.902130421621385,25.936618089675903
0.31697578359675666,0.4001800509599539,0.9967657930107527,0.9126391700404858,0.9945640610640157,0.8580999936825807,0.9956439285197706,0.8460834491917955,0.9938537454367998,0.8727839658091209,25.975741147994995
0.3173811656813468,0.4006032622777499,0.996135752688172,0.9122754301619433,0.9946805787988934,0.8606035979161314,0.9950784411951892,0.8187360960212865,0.9943054552670443,0.9102671357767315,25.874898433685303
0.31619858293123143,0.6133355910961444,0.9973958333333334,0.6801935728744939,0.9939393939393939,0.5303641755653978,0.998805256869773,0.46828830508082486,0.9923565228656562,0.6139533051536203,25.709744691848755
0.3158269598278948,0.4285501608481774,0.9977738575268817,0.8796021002024291,0.9962752125939981,0.8130150419392835,0.9982078853046596,0.7775538984087317,0.9950283269742166,0.8570293844352392,25.851592779159546
0.3163213848426778,0.39968882157252383,0.9968497983870968,0.9127182439271255,0.995083009481121,0.8578419661190916,0.995166148464827,0.845564477012118,0.9950076804915514,0.873434064190408,25.724152088165283
0.31722955549916915,0.36917061989124006,0.9961777553763441,0.946071609311741,0.9942354555816482,0.9106676609667446,0.9955829357610774,0.8863741701751902,0.9933594173327802,0.9382319287276845,25.620105266571045
0.3164419278662692,0.38124037935183597,0.9968497983870968,0.9345742661943319,0.994729074425469,0.8900883323992902,0.9949918986595964,0.890624186389836,0.994489247311828,0.8911947671446632,25.976454734802246
0.31668825046990506,0.43452181495152986,0.99609375,0.8750158147773279,0.9904761904761905,0.8058373346601803,0.9984639016897082,0.7449405371665759,0.9899056396752249,0.878209888502603,25.733433961868286
0.31621741671716014,0.40554709617908186,0.9973538306451613,0.9053643724696356,0.9956295525494276,0.8437038437382021,0.9974910394265233,0.8122693512370025,0.9944538766270515,0.8803087866813544,25.637364149093628
0.31584880428929485,0.41946195180599505,0.9975218413978495,0.8912417763157895,0.9960100087915061,0.8330350217246222,0.9973932877158683,0.7887064392414188,0.9950283269742166,0.8882667360395294,25.626726627349854
0.315820102730105,0.38362606213643,0.9977318548387096,0.9278846153846154,0.9963709677419355,0.8788315905687687,0.9977531696356925,0.8875305197696626,0.9953751878829922,0.8738031322194821,25.71965718269348
0.31596759250087125,0.38505746538822466,0.9976478494623656,0.9268408400809717,0.9966914805624483,0.8764804519004866,0.9975085234723314,0.8844705990298282,0.996021505376344,0.8702501866139348,25.855827569961548
0.31577053634069296,0.452025619836954,0.9975638440860215,0.8535393471659918,0.9962430366627801,0.7483230347467212,0.9969892473118279,0.7704274635789404,0.9956280278860925,0.7326535613486154,25.824373483657837
0.31565327189301934,0.3840255599755507,0.9978998655913979,0.926540359311741,0.9971703452178834,0.8773729203841577,0.9981024667931689,0.8673244600685363,0.9964157706093189,0.889984882526146,25.637805700302124
0.3154204298732101,0.38532626858124364,0.9978158602150538,0.9262398785425101,0.9963214487832485,0.8757706332111374,0.996512641673932,0.8908289075701832,0.9961400606561897,0.8628981505509792,25.902209520339966
0.3159540295600891,0.4601965225659884,0.9973958333333334,0.841520116396761,0.9953230162497971,0.6863007863770434,0.9981100504718016,0.8466453644740166,0.9938566139043283,0.5811156906576452,25.8759822845459
0.31624027445752134,0.38748858066705555,0.9973118279569892,0.9202460779352226,0.9955886407499311,0.8725115143510848,0.9984070091596973,0.8750584543294543,0.9940965633565254,0.8714894419126671,25.993510723114014
0.31523617429118,0.49362735335643476,0.9981098790322581,0.8065220141700404,0.9966162869388677,0.7024268543424976,0.9983314794215794,0.6564742362445626,0.9954459203036053,0.7569274502599528,25.870126485824585
0.3153405663787678,0.4786941913458017,0.998067876344086,0.8210083502024291,0.9973118279569892,0.73388831908787,0.9985215053763441,0.6661539109983922,0.9963813068651779,0.8190217936914261,25.862507820129395
0.3159891950186863,0.3827378222575554,0.9975218413978495,0.9297665738866396,0.996993324160424,0.8828832369506352,0.996292176492399,0.880959361256675,0.9978494623655914,0.8862757903954509,25.870389223098755
0.3153671667140017,0.379374249623372,0.9982778897849462,0.9328504554655871,0.997642458743028,0.8889181461870872,0.9975099037917374,0.8853253071920695,0.9977793361383824,0.894421345336121,25.620188236236572
0.3158626966578986,0.5230653056731591,0.9973538306451613,0.7851878795546559,0.9964533018071271,0.4679024922809918,0.9971573353108393,0.9380322065848381,0.9958643507030603,0.31421626411133136,25.684685468673706
0.3164905966610037,0.3994703201147226,0.9966397849462365,0.9133192054655871,0.9933829611248967,0.8573997286453992,0.9969278033794163,0.8382721065687544,0.9920769666100736,0.8810283703386284,26.117259740829468
0.31540159672819157,0.4877932323859288,0.998067876344086,0.8240922317813765,0.997090449082859,0.6446734077797888,0.9989091475767493,0.8162849364396896,0.9958479718939636,0.5359094004215588,26.02659296989441
0.31576898854265933,0.4205976197352776,0.9977738575268817,0.890862221659919,0.9968162431669371,0.8316807269984232,0.9962310165170158,0.764902446828012,0.9975085234723314,0.9127027072742464,25.753843307495117
0.3168163687311193,0.38563968814336336,0.9957997311827957,0.9290865384615384,0.989660876757651,0.8823904545670824,0.9964157706093191,0.8681191480259158,0.9894602363462153,0.8990847855935213,25.722853422164917
0.315831365764782,0.594168598835285,0.9978158602150538,0.6969256072874495,0.9959482624279258,0.6351913492128332,0.9976539589442815,0.49996930569692977,0.9948179816038348,0.8788085674434757,25.650954961776733
0.3158744189047044,0.38552801654889035,0.9973538306451613,0.9249588815789473,0.9953917050691244,0.8755743327309005,0.9977683100020288,0.8603267276665097,0.9940517044154656,0.8935624129886766,25.892679452896118
0.31557481679865107,0.43187453196598935,0.9977318548387096,0.8774987348178137,0.9969439728353141,0.8144481709742085,0.998164175190139,0.746622621384111,0.9960175228992434,0.8997380288722258,25.611212730407715
0.3151944574489388,0.393550849877871,0.998067876344086,0.9197083755060729,0.9976446492575526,0.8684394078094362,0.9973364900858241,0.8730527686839621,0.9979772170765463,0.8651988016744643,25.98658776283264
0.3154311458910665,0.3854009486161746,0.9981518817204301,0.9268408400809717,0.9968458781362007,0.8800987626390756,0.9973886328725038,0.8622715630880466,0.9963709677419355,0.9007204996543758,25.628434658050537
0.31515077108977946,0.3872502606648665,0.9985299059139785,0.9239941801619433,0.9974742007649564,0.875186651337786,0.998533724340176,0.8882947967646392,0.9966316880424926,0.8671677943330288,26.01245093345642
0.31522687180067904,0.38944673996705276,0.998025873655914,0.9203884109311742,0.9971447664175931,0.8631078961012817,0.9978760122129298,0.8664525496916071,0.9965277777777779,0.8623790092405693,25.85992121696472
0.3149132094075603,0.43272727040144116,0.9986979166666666,0.8767554402834008,0.998324958123953,0.808695499681947,0.9988560970029742,0.7282039340811804,0.9978494623655914,0.9205933824806853,25.927398681640625
0.31520688918329054,0.4082723535024203,0.9981098790322581,0.9008571609311742,0.9974124547179575,0.8340549984336021,0.9975455820476858,0.8284106122483013,0.997283531409168,0.8426331863675571,25.49017858505249
0.31588620075615503,0.38363868915117705,0.9974378360215054,0.9275208755060729,0.9966014819767118,0.8824367976422207,0.9959423818218706,0.8738317810727587,0.9974045235446793,0.8926942814940072,26.015058994293213
0.3161758966343377,0.4205601169512822,0.997059811827957,0.891099443319838,0.995048104131296,0.831890190429698,0.9968483500185392,0.8011066464084619,0.993937314115763,0.8714982379274784,25.889639616012573
0.31567662762057397,0.38449042118512666,0.9976478494623656,0.9266985070850203,0.9964579380139152,0.8649320684301158,0.9974193548387096,0.866774208561348,0.9956989247311827,0.8643058326286983,25.82469081878662
0.3154840575110528,0.3815462520489326,0.9978158602150538,0.9307470900809717,0.9962724014336918,0.8851589863405458,0.9974798387096774,0.8883817592823402,0.9953738434608652,0.8835320622942331,25.9717915058136
0.3154157461017691,0.5925021446668185,0.9979838709677419,0.693841725708502,0.997067448680352,0.6158080413009037,0.9968096419709322,0.4949168694469241,0.9973434535104364,0.8199493249947911,25.886677503585815
0.3151137883304268,0.44751434142772967,0.9981518817204301,0.8578251518218624,0.9969671905155776,0.7591578243012802,0.9978494623655914,0.7567562789840223,0.9962490622655663,0.76859623744338,25.935053825378418
0.3152610210962193,0.38499132027992833,0.9979838709677419,0.9275999493927126,0.9969639468690702,0.8823813506941965,0.9982324348210341,0.8810082676302122,0.9960093116062521,0.885031248815427,25.638543128967285
0.31500814486575385,0.39845196788127607,0.9983198924731183,0.9133982793522267,0.9974089908019174,0.8579461861316453,0.9973118279569892,0.8225240931201504,0.9975085234723314,0.8999978100951692,25.935137510299683
0.3157590784693277,0.5516981941003066,0.9972698252688172,0.7411120951417005,0.9962624345926054,0.667174383102642,0.99776567518503,0.5381555690845853,0.9952101661779081,0.8830462630908618,25.96035885810852
0.31548415108393596,0.5089483559131622,0.9978158602150538,0.7935222672064778,0.9974584555229716,0.7070853441429337,0.996590611067401,0.627382879000308,0.9985589180800354,0.8136977101420462,25.6455397605896
0.31515851809132484,0.3958243796458611,0.9982778897849462,0.9175259362348178,0.9974218700874048,0.8635043932021537,0.9985663082437277,0.8466017916314826,0.9965277777777777,0.8832822274573223,25.990277528762817
0.314586046882855,0.4644912893955524,0.9988239247311828,0.8350676872469636,0.9982289690069577,0.7233840202586349,0.9978252990213845,0.7371952429136827,0.9986725076330811,0.7127284728539869,25.646382093429565
0.3152383956857907,0.3926414893223689,0.9981938844086021,0.9197083755060729,0.9972593860642186,0.8577758580017041,0.9989268947015425,0.8854617770190265,0.9960876921302595,0.8374866046511124,25.596708297729492
0.31493882626615544,0.38201573261847865,0.9984879032258065,0.9290232793522267,0.9978005865102639,0.8814857047875889,0.9978989000123594,0.8744271167754505,0.9977044823003504,0.8902288994295056,26.197986841201782
0.31533678597019565,0.38933942180413467,0.9981938844086021,0.9244369939271255,0.9974734120688641,0.8771553878843358,0.9970069837046891,0.8639305402508944,0.9979994998749687,0.8921330709880766,25.637863874435425
0.31564062096739326,0.404901752105126,0.9977738575268817,0.904542004048583,0.9965874702208486,0.844193174123338,0.9974193548387096,0.8321747057145762,0.9959093034128098,0.8580592864390906,26.00708770751953
0.3144909579266784,0.38793025337732756,0.9989079301075269,0.9251170293522267,0.9984805984104721,0.8778621748760356,0.9993599590373784,0.8564174505765647,0.9977419354838709,0.9018556190667592,25.988364458084106
0.31493673016948087,0.4092387877977811,0.9983618951612904,0.898674721659919,0.9977084435043188,0.84415974850081,0.9973967176004528,0.7905460272492546,0.9980449657869012,0.9070716805782819,25.72665786743164
0.31517158592900923,0.3830910554298988,0.9983618951612904,0.930905237854251,0.997683122438068,0.8848615009704909,0.9981245311327832,0.8763281923317768,0.997283531409168,0.8949901484089051,25.969894886016846
0.31555280281651404,0.38546148859537566,0.9978578629032258,0.9247532894736842,0.9970674486803518,0.8729331394718252,0.997462848858282,0.8602326723025028,0.9967083607636603,0.8873888123634692,25.70936131477356
0.3150922220240357,0.41624438991913426,0.9981518817204301,0.8963499493927126,0.9973420321372478,0.83586214201369,0.9980330448465774,0.7963725307081515,0.9967517921146952,0.8849344020719686,26.07640051841736
